#      z (A) rho (1e-6/A2) irho (1e-6/A2) rhoM (1e-6/A2) theta (degrees)
-21.85501700   2.08789676   0.00002523   0.00000000 270.00000000
-21.75501700   2.08854795   0.00002530   0.00000000 270.00000000
-21.65501700   2.08922639   0.00002537   0.00000000 270.00000000
-21.55501700   2.08993308   0.00002544   0.00000000 270.00000000
-21.45501700   2.09066906   0.00002552   0.00000000 270.00000000
-21.35501700   2.09143541   0.00002560   0.00000000 270.00000000
-21.25501700   2.09223322   0.00002568   0.00000000 270.00000000
-21.15501700   2.09306363   0.00002577   0.00000000 270.00000000
-21.05501700   2.09392781   0.00002586   0.00000000 270.00000000
-20.95501700   2.09482696   0.00002595   0.00000000 270.00000000
-20.85501700   2.09576233   0.00002605   0.00000000 270.00000000
-20.75501700   2.09673518   0.00002615   0.00000000 270.00000000
-20.65501700   2.09774683   0.00002626   0.00000000 270.00000000
-20.55501700   2.09879864   0.00002637   0.00000000 270.00000000
-20.45501700   2.09989197   0.00002648   0.00000000 270.00000000
-20.35501700   2.10102827   0.00002660   0.00000000 270.00000000
-20.25501700   2.10220900   0.00002672   0.00000000 270.00000000
-20.15501700   2.10343566   0.00002685   0.00000000 270.00000000
-20.05501700   2.10470980   0.00002698   0.00000000 270.00000000
-19.95501700   2.10603301   0.00002712   0.00000000 270.00000000
-19.85501700   2.10740692   0.00002726   0.00000000 270.00000000
-19.75501700   2.10883320   0.00002741   0.00000000 270.00000000
-19.65501700   2.11031357   0.00002757   0.00000000 270.00000000
-19.55501700   2.11184980   0.00002773   0.00000000 270.00000000
-19.45501700   2.11344368   0.00002789   0.00000000 270.00000000
-19.35501700   2.11509708   0.00002806   0.00000000 270.00000000
-19.25501700   2.11681189   0.00002824   0.00000000 270.00000000
-19.15501700   2.11859006   0.00002843   0.00000000 270.00000000
-19.05501700   2.12043357   0.00002862   0.00000000 270.00000000
-18.95501700   2.12234448   0.00002882   0.00000000 270.00000000
-18.85501700   2.12432487   0.00002903   0.00000000 270.00000000
-18.75501700   2.12637689   0.00002924   0.00000000 270.00000000
-18.65501700   2.12850271   0.00002946   0.00000000 270.00000000
-18.55501700   2.13070459   0.00002969   0.00000000 270.00000000
-18.45501700   2.13298481   0.00002993   0.00000000 270.00000000
-18.35501700   2.13534572   0.00003017   0.00000000 270.00000000
-18.25501700   2.13778971   0.00003043   0.00000000 270.00000000
-18.15501700   2.14031922   0.00003069   0.00000000 270.00000000
-18.05501700   2.14293676   0.00003096   0.00000000 270.00000000
-17.95501700   2.14564489   0.00003125   0.00000000 270.00000000
-17.85501700   2.14844620   0.00003154   0.00000000 270.00000000
-17.75501700   2.15134335   0.00003184   0.00000000 270.00000000
-17.65501700   2.15433907   0.00003215   0.00000000 270.00000000
-17.55501700   2.15743612   0.00003247   0.00000000 270.00000000
-17.45501700   2.16063733   0.00003281   0.00000000 270.00000000
-17.35501700   2.16394557   0.00003315   0.00000000 270.00000000
-17.25501700   2.16736379   0.00003351   0.00000000 270.00000000
-17.15501700   2.17089496   0.00003388   0.00000000 270.00000000
-17.05501700   2.17454214   0.00003425   0.00000000 270.00000000
-16.95501700   2.17830843   0.00003465   0.00000000 270.00000000
-16.85501700   2.18219698   0.00003505   0.00000000 270.00000000
-16.75501700   2.18621101   0.00003547   0.00000000 270.00000000
-16.65501700   2.19035379   0.00003590   0.00000000 270.00000000
-16.55501700   2.19462864   0.00003635   0.00000000 270.00000000
-16.45501700   2.19903893   0.00003681   0.00000000 270.00000000
-16.35501700   2.20358811   0.00003728   0.00000000 270.00000000
-16.25501700   2.20827966   0.00003777   0.00000000 270.00000000
-16.15501700   2.21311712   0.00003827   0.00000000 270.00000000
-16.05501700   2.21810410   0.00003879   0.00000000 270.00000000
-15.95501700   2.22324425   0.00003933   0.00000000 270.00000000
-15.85501700   2.22854128   0.00003988   0.00000000 270.00000000
-15.75501700   2.23399893   0.00004045   0.00000000 270.00000000
-15.65501700   2.23962103   0.00004103   0.00000000 270.00000000
-15.55501700   2.24541144   0.00004163   0.00000000 270.00000000
-15.45501700   2.25137408   0.00004226   0.00000000 270.00000000
-15.35501700   2.25751290   0.00004290   0.00000000 270.00000000
-15.25501700   2.26383193   0.00004355   0.00000000 270.00000000
-15.15501700   2.27033523   0.00004423   0.00000000 270.00000000
-15.05501700   2.27702690   0.00004493   0.00000000 270.00000000
-14.95501700   2.28391113   0.00004564   0.00000000 270.00000000
-14.85501700   2.29099209   0.00004638   0.00000000 270.00000000
-14.75501700   2.29827406   0.00004714   0.00000000 270.00000000
-14.65501700   2.30576132   0.00004792   0.00000000 270.00000000
-14.55501700   2.31345820   0.00004872   0.00000000 270.00000000
-14.45501700   2.32136910   0.00004954   0.00000000 270.00000000
-14.35501700   2.32949842   0.00005039   0.00000000 270.00000000
-14.25501700   2.33785063   0.00005126   0.00000000 270.00000000
-14.15501700   2.34643021   0.00005215   0.00000000 270.00000000
-14.05501700   2.35524170   0.00005307   0.00000000 270.00000000
-13.95501700   2.36428966   0.00005401   0.00000000 270.00000000
-13.85501700   2.37357869   0.00005498   0.00000000 270.00000000
-13.75501700   2.38311341   0.00005597   0.00000000 270.00000000
-13.65501700   2.39289848   0.00005699   0.00000000 270.00000000
-13.55501700   2.40293857   0.00005804   0.00000000 270.00000000
-13.45501700   2.41323840   0.00005911   0.00000000 270.00000000
-13.35501700   2.42380270   0.00006021   0.00000000 270.00000000
-13.25501700   2.43463620   0.00006134   0.00000000 270.00000000
-13.15501700   2.44574369   0.00006250   0.00000000 270.00000000
-13.05501700   2.45712993   0.00006368   0.00000000 270.00000000
-12.95501700   2.46879974   0.00006490   0.00000000 270.00000000
-12.85501700   2.48075791   0.00006614   0.00000000 270.00000000
-12.75501700   2.49300927   0.00006742   0.00000000 270.00000000
-12.65501700   2.50555863   0.00006873   0.00000000 270.00000000
-12.55501700   2.51841083   0.00007006   0.00000000 270.00000000
-12.45501700   2.53157070   0.00007143   0.00000000 270.00000000
-12.35501700   2.54504305   0.00007284   0.00000000 270.00000000
-12.25501700   2.55883271   0.00007427   0.00000000 270.00000000
-12.15501700   2.57294450   0.00007574   0.00000000 270.00000000
-12.05501700   2.58738322   0.00007725   0.00000000 270.00000000
-11.95501700   2.60215366   0.00007878   0.00000000 270.00000000
-11.85501700   2.61726059   0.00008036   0.00000000 270.00000000
-11.75501700   2.63270877   0.00008197   0.00000000 270.00000000
-11.65501700   2.64850293   0.00008361   0.00000000 270.00000000
-11.55501700   2.66464778   0.00008529   0.00000000 270.00000000
-11.45501700   2.68114800   0.00008701   0.00000000 270.00000000
-11.35501700   2.69800822   0.00008877   0.00000000 270.00000000
-11.25501700   2.71523306   0.00009056   0.00000000 270.00000000
-11.15501700   2.73282710   0.00009239   0.00000000 270.00000000
-11.05501700   2.75079484   0.00009426   0.00000000 270.00000000
-10.95501700   2.76914079   0.00009617   0.00000000 270.00000000
-10.85501700   2.78786936   0.00009812   0.00000000 270.00000000
-10.75501700   2.80698493   0.00010011   0.00000000 270.00000000
-10.65501700   2.82649184   0.00010215   0.00000000 270.00000000
-10.55501700   2.84639433   0.00010422   0.00000000 270.00000000
-10.45501700   2.86669660   0.00010633   0.00000000 270.00000000
-10.35501700   2.88740279   0.00010849   0.00000000 270.00000000
-10.25501700   2.90851695   0.00011069   0.00000000 270.00000000
-10.15501700   2.93004306   0.00011293   0.00000000 270.00000000
-10.05501700   2.95198502   0.00011521   0.00000000 270.00000000
 -9.95501700   2.97434666   0.00011754   0.00000000 270.00000000
 -9.85501700   2.99713171   0.00011992   0.00000000 270.00000000
 -9.75501700   3.02034381   0.00012233   0.00000000 270.00000000
 -9.65501700   3.04398650   0.00012480   0.00000000 270.00000000
 -9.55501700   3.06806325   0.00012730   0.00000000 270.00000000
 -9.45501700   3.09257739   0.00012986   0.00000000 270.00000000
 -9.35501700   3.11753218   0.00013245   0.00000000 270.00000000
 -9.25501700   3.14293074   0.00013510   0.00000000 270.00000000
 -9.15501700   3.16877611   0.00013779   0.00000000 270.00000000
 -9.05501700   3.19507117   0.00014053   0.00000000 270.00000000
 -8.95501700   3.22181873   0.00014331   0.00000000 270.00000000
 -8.85501700   3.24902143   0.00014615   0.00000000 270.00000000
 -8.75501700   3.27668182   0.00014903   0.00000000 270.00000000
 -8.65501700   3.30480229   0.00015196   0.00000000 270.00000000
 -8.55501700   3.33338510   0.00015493   0.00000000 270.00000000
 -8.45501700   3.36243240   0.00015796   0.00000000 270.00000000
 -8.35501700   3.39194615   0.00016103   0.00000000 270.00000000
 -8.25501700   3.42192821   0.00016415   0.00000000 270.00000000
 -8.15501700   3.45238027   0.00016732   0.00000000 270.00000000
 -8.05501700   3.48330387   0.00017054   0.00000000 270.00000000
 -7.95501700   3.51470038   0.00017381   0.00000000 270.00000000
 -7.85501700   3.54657105   0.00017713   0.00000000 270.00000000
 -7.75501700   3.57891693   0.00018050   0.00000000 270.00000000
 -7.65501700   3.61173893   0.00018392   0.00000000 270.00000000
 -7.55501700   3.64503777   0.00018739   0.00000000 270.00000000
 -7.45501700   3.67881403   0.00019090   0.00000000 270.00000000
 -7.35501700   3.71306808   0.00019447   0.00000000 270.00000000
 -7.25501700   3.74780016   0.00019809   0.00000000 270.00000000
 -7.15501700   3.78301028   0.00020175   0.00000000 270.00000000
 -7.05501700   3.81869831   0.00020547   0.00000000 270.00000000
 -6.95501700   3.85486392   0.00020924   0.00000000 270.00000000
 -6.85501700   3.89150659   0.00021305   0.00000000 270.00000000
 -6.75501700   3.92862562   0.00021692   0.00000000 270.00000000
 -6.65501700   3.96622012   0.00022083   0.00000000 270.00000000
 -6.55501700   4.00428901   0.00022480   0.00000000 270.00000000
 -6.45501700   4.04283101   0.00022881   0.00000000 270.00000000
 -6.35501700   4.08184465   0.00023287   0.00000000 270.00000000
 -6.25501700   4.12132825   0.00023699   0.00000000 270.00000000
 -6.15501700   4.16127996   0.00024115   0.00000000 270.00000000
 -6.05501700   4.20169771   0.00024535   0.00000000 270.00000000
 -5.95501700   4.24257922   0.00024961   0.00000000 270.00000000
 -5.85501700   4.28392203   0.00025392   0.00000000 270.00000000
 -5.75501700   4.32572347   0.00025827   0.00000000 270.00000000
 -5.65501700   4.36798065   0.00026267   0.00000000 270.00000000
 -5.55501700   4.41069051   0.00026712   0.00000000 270.00000000
 -5.45501700   4.45384976   0.00027161   0.00000000 270.00000000
 -5.35501700   4.49745491   0.00027615   0.00000000 270.00000000
 -5.25501700   4.54150227   0.00028074   0.00000000 270.00000000
 -5.15501700   4.58598793   0.00028537   0.00000000 270.00000000
 -5.05501700   4.63090780   0.00029005   0.00000000 270.00000000
 -4.95501700   4.67625756   0.00029477   0.00000000 270.00000000
 -4.85501700   4.72203271   0.00029954   0.00000000 270.00000000
 -4.75501700   4.76822853   0.00030435   0.00000000 270.00000000
 -4.65501700   4.81484010   0.00030921   0.00000000 270.00000000
 -4.55501700   4.86186231   0.00031410   0.00000000 270.00000000
 -4.45501700   4.90928983   0.00031904   0.00000000 270.00000000
 -4.35501700   4.95711714   0.00032402   0.00000000 270.00000000
 -4.25501700   5.00533854   0.00032904   0.00000000 270.00000000
 -4.15501700   5.05394809   0.00033411   0.00000000 270.00000000
 -4.05501700   5.10293971   0.00033921   0.00000000 270.00000000
 -3.95501700   5.15230708   0.00034435   0.00000000 270.00000000
 -3.85501700   5.20204373   0.00034953   0.00000000 270.00000000
 -3.75501700   5.25214296   0.00035474   0.00000000 270.00000000
 -3.65501700   5.30259791   0.00036000   0.00000000 270.00000000
 -3.55501700   5.35340154   0.00036529   0.00000000 270.00000000
 -3.45501700   5.40454662   0.00037062   0.00000000 270.00000000
 -3.35501700   5.45602574   0.00037598   0.00000000 270.00000000
 -3.25501700   5.50783133   0.00038137   0.00000000 270.00000000
 -3.15501700   5.55995562   0.00038680   0.00000000 270.00000000
 -3.05501700   5.61239071   0.00039226   0.00000000 270.00000000
 -2.95501700   5.66512850   0.00039775   0.00000000 270.00000000
 -2.85501700   5.71816074   0.00040327   0.00000000 270.00000000
 -2.75501700   5.77147905   0.00040883   0.00000000 270.00000000
 -2.65501700   5.82507485   0.00041441   0.00000000 270.00000000
 -2.55501700   5.87893945   0.00042002   0.00000000 270.00000000
 -2.45501700   5.93306399   0.00042565   0.00000000 270.00000000
 -2.35501700   5.98743947   0.00043132   0.00000001 270.00000000
 -2.25501700   6.04205678   0.00043700   0.00000001 270.00000000
 -2.15501700   6.09690665   0.00044271   0.00000001 270.00000000
 -2.05501700   6.15197970   0.00044845   0.00000002 270.00000000
 -1.95501700   6.20726640   0.00045421   0.00000003 270.00000000
 -1.85501700   6.26275714   0.00045999   0.00000004 270.00000000
 -1.75501700   6.31844218   0.00046578   0.00000006 270.00000000
 -1.65501700   6.37431166   0.00047160   0.00000008 270.00000000
 -1.55501700   6.43035564   0.00047744   0.00000012 270.00000000
 -1.45501700   6.48656407   0.00048329   0.00000018 270.00000000
 -1.35501700   6.54292681   0.00048916   0.00000026 270.00000000
 -1.25501700   6.59943364   0.00049505   0.00000037 270.00000000
 -1.15501700   6.65607425   0.00050094   0.00000054 270.00000000
 -1.05501700   6.71283827   0.00050686   0.00000077 270.00000000
 -0.95501700   6.76971523   0.00051278   0.00000109 270.00000000
 -0.85501700   6.82669464   0.00051871   0.00000155 270.00000000
 -0.75501700   6.88376591   0.00052466   0.00000218 270.00000000
 -0.65501700   6.94091844   0.00053061   0.00000305 270.00000000
 -0.55501700   6.99814154   0.00053657   0.00000426 270.00000000
 -0.45501700   7.05542452   0.00054253   0.00000592 270.00000000
 -0.35501700   7.11275664   0.00054850   0.00000818 270.00000000
 -0.25501700   7.17012712   0.00055448   0.00001125 270.00000000
 -0.15501700   7.22752517   0.00056045   0.00001541 270.00000000
 -0.05501700   7.28493999   0.00056643   0.00002101 270.00000000
  0.04498300   7.34236076   0.00057241   0.00002850 270.00000000
  0.14498300   7.39977666   0.00057839   0.00003847 270.00000000
  0.24498300   7.45717688   0.00058437   0.00005171 270.00000000
  0.34498300   7.51455061   0.00059034   0.00006916 270.00000000
  0.44498300   7.57188706   0.00059631   0.00009208 270.00000000
  0.54498300   7.62917546   0.00060228   0.00012202 270.00000000
  0.64498300   7.68640506   0.00060824   0.00016095 270.00000000
  0.74498300   7.74356515   0.00061419   0.00021130 270.00000000
  0.84498300   7.80064506   0.00062014   0.00027612 270.00000000
  0.94498300   7.85763416   0.00062607   0.00035916 270.00000000
  1.04498300   7.91452188   0.00063199   0.00046501 270.00000000
  1.14498300   7.97129770   0.00063791   0.00059927 270.00000000
  1.24498300   8.02795116   0.00064381   0.00076874 270.00000000
  1.34498300   8.08447188   0.00064969   0.00098160 270.00000000
  1.44498300   8.14084954   0.00065556   0.00124765 270.00000000
  1.54498300   8.19707391   0.00066142   0.00157855 270.00000000
  1.64498300   8.25313485   0.00066726   0.00198809 270.00000000
  1.74498300   8.30902229   0.00067308   0.00249246 270.00000000
  1.84498300   8.36472628   0.00067888   0.00311059 270.00000000
  1.94498300   8.42023696   0.00068466   0.00386441 270.00000000
  2.04498300   8.47554457   0.00069042   0.00477921 270.00000000
  2.14498300   8.53063949   0.00069615   0.00588390 270.00000000
  2.24498300   8.58551218   0.00070187   0.00721136 270.00000000
  2.34498300   8.64015324   0.00070756   0.00879870 270.00000000
  2.44498300   8.69455341   0.00071322   0.01068749 270.00000000
  2.54498300   8.74870353   0.00071886   0.01292393 270.00000000
  2.64498300   8.80259462   0.00072447   0.01555904 270.00000000
  2.74498300   8.85621778   0.00073006   0.01864864 270.00000000
  2.84498300   8.90956432   0.00073561   0.02225337 270.00000000
  2.94498300   8.96262565   0.00074114   0.02643847 270.00000000
  3.04498300   9.01539336   0.00074663   0.03127355 270.00000000
  3.14498300   9.06785919   0.00075210   0.03683216 270.00000000
  3.24498300   9.12001503   0.00075753   0.04319122 270.00000000
  3.34498300   9.17185294   0.00076293   0.05043031 270.00000000
  3.44498300   9.22336517   0.00076829   0.05863079 270.00000000
  3.54498300   9.27454410   0.00077362   0.06787478 270.00000000
  3.64498300   9.32538233   0.00077892   0.07824395 270.00000000
  3.74498300   9.37587259   0.00078417   0.08981819 270.00000000
  3.84498300   9.42600782   0.00078939   0.10267419 270.00000000
  3.94498300   9.47578115   0.00079458   0.11688383 270.00000000
  4.04498300   9.52518587   0.00079972   0.13251262 270.00000000
  4.14498300   9.57421548   0.00080483   0.14961795 270.00000000
  4.24498300   9.62286365   0.00080989   0.16824750 270.00000000
  4.34498300   9.67112427   0.00081492   0.18843755 270.00000000
  4.44498300   9.71899138   0.00081990   0.21021148 270.00000000
  4.54498300   9.76645927   0.00082485   0.23357837 270.00000000
  4.64498300   9.81352239   0.00082975   0.25853173 270.00000000
  4.74498300   9.86017540   0.00083461   0.28504858 270.00000000
  4.84498300   9.90641316   0.00083942   0.31308865 270.00000000
  4.94498300   9.95223074   0.00084419   0.34259398 270.00000000
  5.04498300   9.99762339   0.00084892   0.37348886 270.00000000
  5.14498300  10.04258659   0.00085360   0.40568003 270.00000000
  5.24498300  10.08711601   0.00085824   0.43905736 270.00000000
  5.34498300  10.13120753   0.00086283   0.47349478 270.00000000
  5.44498300  10.17485722   0.00086738   0.50885168 270.00000000
  5.54498300  10.21806137   0.00087188   0.54497453 270.00000000
  5.64498300  10.26081647   0.00087633   0.58169891 270.00000000
  5.74498300  10.30311922   0.00088073   0.61885167 270.00000000
  5.84498300  10.34496652   0.00088509   0.65625344 270.00000000
  5.94498300  10.38635547   0.00088940   0.69372121 270.00000000
  6.04498300  10.42728339   0.00089366   0.73107095 270.00000000
  6.14498300  10.46774777   0.00089788   0.76812042 270.00000000
  6.24498300  10.50774634   0.00090204   0.80469174 270.00000000
  6.34498300  10.54727700   0.00090616   0.84061401 270.00000000
  6.44498300  10.58633787   0.00091023   0.87572567 270.00000000
  6.54498300  10.62492727   0.00091425   0.90987665 270.00000000
  6.64498300  10.66304369   0.00091821   0.94293031 270.00000000
  6.74498300  10.70068584   0.00092213   0.97476497 270.00000000
  6.84498300  10.73785263   0.00092600   1.00527519 270.00000000
  6.94498300  10.77454313   0.00092983   1.03437263 270.00000000
  7.04498300  10.81075663   0.00093360   1.06198659 270.00000000
  7.14498300  10.84649260   0.00093732   1.08806416 270.00000000
  7.24498300  10.88175069   0.00094099   1.11257001 270.00000000
  7.34498300  10.91653073   0.00094461   1.13548590 270.00000000
  7.44498300  10.95083274   0.00094818   1.15680989 270.00000000
  7.54498300  10.98465693   0.00095171   1.17655521 270.00000000
  7.64498300  11.01800365   0.00095518   1.19474906 270.00000000
  7.74498300  11.05087346   0.00095860   1.21143110 270.00000000
  7.84498300  11.08326708   0.00096198   1.22665193 270.00000000
  7.94498300  11.11518538   0.00096530   1.24047141 270.00000000
  8.04498300  11.14662943   0.00096857   1.25295702 270.00000000
  8.14498300  11.17760041   0.00097180   1.26418217 270.00000000
  8.24498300  11.20809972   0.00097497   1.27422460 270.00000000
  8.34498300  11.23812887   0.00097810   1.28316485 270.00000000
  8.44498300  11.26768953   0.00098118   1.29108485 270.00000000
  8.54498300  11.29678354   0.00098421   1.29806661 270.00000000
  8.64498300  11.32541287   0.00098719   1.30419110 270.00000000
